% Finesse 2.1 (2.1-31-g2aa13d1), 12.09.2016
% 2D plot, y1axis: Re , y2axis: Im 
% f [Hz] (darm), NSR_with_RP Re , NSR_with_RP Im , Laver Re , Laver Im , Lmx Re , Lmx Im , Lmy Re , Lmy Im 

 5.00000000000000  2.25867173437819e-22  0.00000000000000  5.34250000000000  0.00000000000000  4.99294066409517  0.00000000000000  5.01257380202819  0.00000000000000 
 5.74076810748417  1.69634068449125e-22  0.00000000000000  5.34250000000000  0.00000000000000  4.99294066409517  0.00000000000000  5.01257380202819  0.00000000000000 
 6.59128369278147  1.27714835799529e-22  0.00000000000000  5.34250000000000  0.00000000000000  4.99294066409517  0.00000000000000  5.01257380202819  0.00000000000000 
 7.56780624218007  9.63359315702104e-23  0.00000000000000  5.34250000000000  0.00000000000000  4.99294066409517  0.00000000000000  5.01257380202819  0.00000000000000 
 8.68900414374539  7.27712368538756e-23  0.00000000000000  5.34250000000000  0.00000000000000  4.99294066409517  0.00000000000000  5.01257380202819  0.00000000000000 
 9.97631157484227  5.50311969762509e-23  0.00000000000000  5.34250000000000  0.00000000000000  4.99294066409517  0.00000000000000  5.01257380202819  0.00000000000000 
 11.4543382638359  4.16517700709974e-23  0.00000000000000  5.34250000000000  0.00000000000000  4.99294066409517  0.00000000000000  5.01257380202819  0.00000000000000 
 13.1513399594730  3.15480364874606e-23  0.00000000000000  5.34250000000000  0.00000000000000  4.99294066409517  0.00000000000000  5.01257380202819  0.00000000000000 
 15.0997586020049  2.39115040184014e-23  0.00000000000000  5.34250000000000  0.00000000000000  4.99294066409517  0.00000000000000  5.01257380202819  0.00000000000000 
 17.3368425226199  1.81371505941647e-23  0.00000000000000  5.34250000000000  0.00000000000000  4.99294066409517  0.00000000000000  5.01257380202819  0.00000000000000 
 19.9053585276664  1.37708763102753e-23  0.00000000000000  5.34250000000000  0.00000000000000  4.99294066409517  0.00000000000000  5.01257380202819  0.00000000000000 
 22.8544094807330  1.04711870308215e-23  0.00000000000000  5.34250000000000  0.00000000000000  4.99294066409517  0.00000000000000  5.01257380202819  0.00000000000000 
 26.2403730124752  7.98096156934080e-24  0.00000000000000  5.34250000000000  0.00000000000000  4.99294066409517  0.00000000000000  5.01257380202819  0.00000000000000 
 30.1279793037012  6.10643067691758e-24  0.00000000000000  5.34250000000000  0.00000000000000  4.99294066409517  0.00000000000000  5.01257380202819  0.00000000000000 
 34.5915485459261  4.70130001632979e-24  0.00000000000000  5.34250000000000  0.00000000000000  4.99294066409517  0.00000000000000  5.01257380202819  0.00000000000000 
 39.7164117361886  3.65449224912390e-24  0.00000000000000  5.34250000000000  0.00000000000000  4.99294066409517  0.00000000000000  5.01257380202819  0.00000000000000 
 45.6005419677643  2.88050576931890e-24  0.00000000000000  5.34250000000000  0.00000000000000  4.99294066409517  0.00000000000000  5.01257380202819  0.00000000000000 
 52.3564274025069  2.31216583116502e-24  0.00000000000000  5.34250000000000  0.00000000000000  4.99294066409517  0.00000000000000  5.01257380202819  0.00000000000000 
 60.1132217308244  1.89638272790717e-24  0.00000000000000  5.34250000000000  0.00000000000000  4.99294066409517  0.00000000000000  5.01257380202819  0.00000000000000 
 69.0192132300882  1.59302200699432e-24  0.00000000000000  5.34250000000000  0.00000000000000  4.99294066409517  0.00000000000000  5.01257380202819  0.00000000000000 
 79.2446596229879  1.37446437391803e-24  0.00000000000000  5.34250000000000  0.00000000000000  4.99294066409517  0.00000000000000  5.01257380202819  0.00000000000000 
 90.9850429304175  1.22272439973836e-24  0.00000000000000  5.34250000000000  0.00000000000000  4.99294066409517  0.00000000000000  5.01257380202819  0.00000000000000 
 104.464806542604  1.12483218415943e-24  0.00000000000000  5.34250000000000  0.00000000000000  4.99294066409517  0.00000000000000  5.01257380202819  0.00000000000000 
 119.941645950857  1.06981193928145e-24  0.00000000000000  5.34250000000000  0.00000000000000  4.99294066409517  0.00000000000000  5.01257380202819  0.00000000000000 
 137.711435166767  1.04833410743745e-24  0.00000000000000  5.34250000000000  0.00000000000000  4.99294066409517  0.00000000000000  5.01257380202819  0.00000000000000 
 158.113883008250  1.05355605289359e-24  0.00000000000000  5.34250000000000  0.00000000000000  4.99294066409517  0.00000000000000  5.01257380202819  0.00000000000000 
 181.539027384849  1.08182382396633e-24  0.00000000000000  5.34250000000000  0.00000000000000  4.99294066409517  0.00000000000000  5.01257380202819  0.00000000000000 
 208.434691734927  1.13319191604097e-24  0.00000000000000  5.34250000000000  0.00000000000000  4.99294066409517  0.00000000000000  5.01257380202819  0.00000000000000 
 239.315046161033  1.21236554358064e-24  0.00000000000000  5.34250000000000  0.00000000000000  4.99294066409517  0.00000000000000  5.01257380202819  0.00000000000000 
 274.770436928472  1.32600300946399e-24  0.00000000000000  5.34250000000000  0.00000000000000  4.99294066409517  0.00000000000000  5.01257380202819  0.00000000000000 
 315.478672239692  1.38547438380416e-24  0.00000000000000  5.34250000000000  0.00000000000000  4.99294066409517  0.00000000000000  5.01257380202819  0.00000000000000 
 362.217980037015  1.18601989708607e-24  0.00000000000000  5.34250000000000  0.00000000000000  4.99294066409517  0.00000000000000  5.01257380202819  0.00000000000000 
 415.881885550767  1.26339818062505e-24  0.00000000000000  5.34250000000000  0.00000000000000  4.99294066409517  0.00000000000000  5.01257380202819  0.00000000000000 
 477.496293010045  1.43040258559524e-24  0.00000000000000  5.34250000000000  0.00000000000000  4.99294066409517  0.00000000000000  5.01257380202819  0.00000000000000 
 548.239098070796  1.62209280745478e-24  0.00000000000000  5.34250000000000  0.00000000000000  4.99294066409517  0.00000000000000  5.01257380202819  0.00000000000000 
 629.462705896142  1.86183812122666e-24  0.00000000000000  5.34250000000000  0.00000000000000  4.99294066409517  0.00000000000000  5.01257380202819  0.00000000000000 
 722.719885371852  2.01921934514644e-24  0.00000000000000  5.34250000000000  0.00000000000000  4.99294066409517  0.00000000000000  5.01257380202819  0.00000000000000 
 829.793453717469  2.22923459837758e-24  0.00000000000000  5.34250000000000  0.00000000000000  4.99294066409517  0.00000000000000  5.01257380202819  0.00000000000000 
 952.730358980076  2.54363948599603e-24  0.00000000000000  5.34250000000000  0.00000000000000  4.99294066409517  0.00000000000000  5.01257380202819  0.00000000000000 
 1093.88081197295  2.89881348140579e-24  0.00000000000000  5.34250000000000  0.00000000000000  4.99294066409517  0.00000000000000  5.01257380202819  0.00000000000000 
 1255.94321575264  3.28876373049912e-24  0.00000000000000  5.34250000000000  0.00000000000000  4.99294066409517  0.00000000000000  5.01257380202819  0.00000000000000 
 1442.01575156078  3.75639289543069e-24  0.00000000000000  5.34250000000000  0.00000000000000  4.99294066409517  0.00000000000000  5.01257380202819  0.00000000000000 
 1655.65560740998  4.28748214888023e-24  0.00000000000000  5.34250000000000  0.00000000000000  4.99294066409517  0.00000000000000  5.01257380202819  0.00000000000000 
 1900.94698159931  4.90378816218556e-24  0.00000000000000  5.34250000000000  0.00000000000000  4.99294066409517  0.00000000000000  5.01257380202819  0.00000000000000 
 2182.57916119673  5.61322288740026e-24  0.00000000000000  5.34250000000000  0.00000000000000  4.99294066409517  0.00000000000000  5.01257380202819  0.00000000000000 
 2505.93616813154  6.42949287158757e-24  0.00000000000000  5.34250000000000  0.00000000000000  4.99294066409517  0.00000000000000  5.01257380202819  0.00000000000000 
 2877.19968668013  7.36699535043030e-24  0.00000000000000  5.34250000000000  0.00000000000000  4.99294066409517  0.00000000000000  5.01257380202819  0.00000000000000 
 3303.46724003135  8.45705673361409e-24  0.00000000000000  5.34250000000000  0.00000000000000  4.99294066409517  0.00000000000000  5.01257380202819  0.00000000000000 
 3792.88787513814  9.69680990679620e-24  0.00000000000000  5.34250000000000  0.00000000000000  4.99294066409517  0.00000000000000  5.01257380202819  0.00000000000000 
 4354.81794977128  1.11257841714811e-23  0.00000000000000  5.34250000000000  0.00000000000000  4.99294066409517  0.00000000000000  5.01257380202819  0.00000000000000 
 5000.00000000000  1.27694678939062e-23  0.00000000000000  5.34250000000000  0.00000000000000  4.99294066409517  0.00000000000000  5.01257380202819  0.00000000000000 
