% Finesse 2.1 (2.1-31-g2aa13d1), 12.09.2016
% 2D plot, y1axis: Re , y2axis: Im 
% f [Hz] (darm), NSR_with_RP Re , NSR_with_RP Im , Laver Re , Laver Im , Lmx Re , Lmx Im , Lmy Re , Lmy Im 

 5.00000000000000  2.19780835850651e-22  0.00000000000000  5.34250000000000  0.00000000000000  4.99294066409517  0.00000000000000  5.01257380202819  0.00000000000000 
 5.74076810748417  1.65129206891640e-22  0.00000000000000  5.34250000000000  0.00000000000000  4.99294066409517  0.00000000000000  5.01257380202819  0.00000000000000 
 6.59128369278147  1.24370953783455e-22  0.00000000000000  5.34250000000000  0.00000000000000  4.99294066409517  0.00000000000000  5.01257380202819  0.00000000000000 
 7.56780624218007  9.38478346566863e-23  0.00000000000000  5.34250000000000  0.00000000000000  4.99294066409517  0.00000000000000  5.01257380202819  0.00000000000000 
 8.68900414374539  7.09188939014719e-23  0.00000000000000  5.34250000000000  0.00000000000000  4.99294066409517  0.00000000000000  5.01257380202819  0.00000000000000 
 9.97631157484227  5.36546614940496e-23  0.00000000000000  5.34250000000000  0.00000000000000  4.99294066409517  0.00000000000000  5.01257380202819  0.00000000000000 
 11.4543382638359  4.06330456055732e-23  0.00000000000000  5.34250000000000  0.00000000000000  4.99294066409517  0.00000000000000  5.01257380202819  0.00000000000000 
 13.1513399594730  3.07990353935925e-23  0.00000000000000  5.34250000000000  0.00000000000000  4.99294066409517  0.00000000000000  5.01257380202819  0.00000000000000 
 15.0997586020049  2.33659832193098e-23  0.00000000000000  5.34250000000000  0.00000000000000  4.99294066409517  0.00000000000000  5.01257380202819  0.00000000000000 
 17.3368425226199  1.77450510598749e-23  0.00000000000000  5.34250000000000  0.00000000000000  4.99294066409517  0.00000000000000  5.01257380202819  0.00000000000000 
 19.9053585276664  1.34941945587040e-23  0.00000000000000  5.34250000000000  0.00000000000000  4.99294066409517  0.00000000000000  5.01257380202819  0.00000000000000 
 22.8544094807330  1.02808946384565e-23  0.00000000000000  5.34250000000000  0.00000000000000  4.99294066409517  0.00000000000000  5.01257380202819  0.00000000000000 
 26.2403730124752  7.85467483911373e-24  0.00000000000000  5.34250000000000  0.00000000000000  4.99294066409517  0.00000000000000  5.01257380202819  0.00000000000000 
 30.1279793037012  6.02664044695129e-24  0.00000000000000  5.34250000000000  0.00000000000000  4.99294066409517  0.00000000000000  5.01257380202819  0.00000000000000 
 34.5915485459261  4.65406198568535e-24  0.00000000000000  5.34250000000000  0.00000000000000  4.99294066409517  0.00000000000000  5.01257380202819  0.00000000000000 
 39.7164117361886  3.62857691481864e-24  0.00000000000000  5.34250000000000  0.00000000000000  4.99294066409517  0.00000000000000  5.01257380202819  0.00000000000000 
 45.6005419677643  2.86708859728751e-24  0.00000000000000  5.34250000000000  0.00000000000000  4.99294066409517  0.00000000000000  5.01257380202819  0.00000000000000 
 52.3564274025069  2.30506768180015e-24  0.00000000000000  5.34250000000000  0.00000000000000  4.99294066409517  0.00000000000000  5.01257380202819  0.00000000000000 
 60.1132217308244  1.89248244395976e-24  0.00000000000000  5.34250000000000  0.00000000000000  4.99294066409517  0.00000000000000  5.01257380202819  0.00000000000000 
 69.0192132300882  1.59203293105386e-24  0.00000000000000  5.34250000000000  0.00000000000000  4.99294066409517  0.00000000000000  5.01257380202819  0.00000000000000 
 79.2446596229879  1.37764089299993e-24  0.00000000000000  5.34250000000000  0.00000000000000  4.99294066409517  0.00000000000000  5.01257380202819  0.00000000000000 
 90.9850429304175  1.23120975398581e-24  0.00000000000000  5.34250000000000  0.00000000000000  4.99294066409517  0.00000000000000  5.01257380202819  0.00000000000000 
 104.464806542604  1.13876378920077e-24  0.00000000000000  5.34250000000000  0.00000000000000  4.99294066409517  0.00000000000000  5.01257380202819  0.00000000000000 
 119.941645950857  1.08845366656090e-24  0.00000000000000  5.34250000000000  0.00000000000000  4.99294066409517  0.00000000000000  5.01257380202819  0.00000000000000 
 137.711435166767  1.07067120648835e-24  0.00000000000000  5.34250000000000  0.00000000000000  4.99294066409517  0.00000000000000  5.01257380202819  0.00000000000000 
 158.113883008250  1.07878168924833e-24  0.00000000000000  5.34250000000000  0.00000000000000  4.99294066409517  0.00000000000000  5.01257380202819  0.00000000000000 
 181.539027384849  1.10955975735137e-24  0.00000000000000  5.34250000000000  0.00000000000000  4.99294066409517  0.00000000000000  5.01257380202819  0.00000000000000 
 208.434691734927  1.16356733731016e-24  0.00000000000000  5.34250000000000  0.00000000000000  4.99294066409517  0.00000000000000  5.01257380202819  0.00000000000000 
 239.315046161033  1.24617317694110e-24  0.00000000000000  5.34250000000000  0.00000000000000  4.99294066409517  0.00000000000000  5.01257380202819  0.00000000000000 
 274.770436928472  1.36524254518928e-24  0.00000000000000  5.34250000000000  0.00000000000000  4.99294066409517  0.00000000000000  5.01257380202819  0.00000000000000 
 315.478672239692  1.43209709728704e-24  0.00000000000000  5.34250000000000  0.00000000000000  4.99294066409517  0.00000000000000  5.01257380202819  0.00000000000000 
 362.217980037015  1.22729573245701e-24  0.00000000000000  5.34250000000000  0.00000000000000  4.99294066409517  0.00000000000000  5.01257380202819  0.00000000000000 
 415.881885550767  1.30195412064811e-24  0.00000000000000  5.34250000000000  0.00000000000000  4.99294066409517  0.00000000000000  5.01257380202819  0.00000000000000 
 477.496293010045  1.47196703259581e-24  0.00000000000000  5.34250000000000  0.00000000000000  4.99294066409517  0.00000000000000  5.01257380202819  0.00000000000000 
 548.239098070796  1.66828250619001e-24  0.00000000000000  5.34250000000000  0.00000000000000  4.99294066409517  0.00000000000000  5.01257380202819  0.00000000000000 
 629.462705896142  1.91330499039613e-24  0.00000000000000  5.34250000000000  0.00000000000000  4.99294066409517  0.00000000000000  5.01257380202819  0.00000000000000 
 722.719885371852  2.07669092387516e-24  0.00000000000000  5.34250000000000  0.00000000000000  4.99294066409517  0.00000000000000  5.01257380202819  0.00000000000000 
 829.793453717469  2.29558857581229e-24  0.00000000000000  5.34250000000000  0.00000000000000  4.99294066409517  0.00000000000000  5.01257380202819  0.00000000000000 
 952.730358980076  2.61853654080325e-24  0.00000000000000  5.34250000000000  0.00000000000000  4.99294066409517  0.00000000000000  5.01257380202819  0.00000000000000 
 1093.88081197295  2.99030950174909e-24  0.00000000000000  5.34250000000000  0.00000000000000  4.99294066409517  0.00000000000000  5.01257380202819  0.00000000000000 
 1255.94321575264  3.38909337637022e-24  0.00000000000000  5.34250000000000  0.00000000000000  4.99294066409517  0.00000000000000  5.01257380202819  0.00000000000000 
 1442.01575156078  3.86730837681323e-24  0.00000000000000  5.34250000000000  0.00000000000000  4.99294066409517  0.00000000000000  5.01257380202819  0.00000000000000 
 1655.65560740998  4.41841848139506e-24  0.00000000000000  5.34250000000000  0.00000000000000  4.99294066409517  0.00000000000000  5.01257380202819  0.00000000000000 
 1900.94698159931  5.05327022839613e-24  0.00000000000000  5.34250000000000  0.00000000000000  4.99294066409517  0.00000000000000  5.01257380202819  0.00000000000000 
 2182.57916119673  5.78436018900785e-24  0.00000000000000  5.34250000000000  0.00000000000000  4.99294066409517  0.00000000000000  5.01257380202819  0.00000000000000 
 2505.93616813154  6.62594252533464e-24  0.00000000000000  5.34250000000000  0.00000000000000  4.99294066409517  0.00000000000000  5.01257380202819  0.00000000000000 
 2877.19968668013  7.59435407755195e-24  0.00000000000000  5.34250000000000  0.00000000000000  4.99294066409517  0.00000000000000  5.01257380202819  0.00000000000000 
 3303.46724003135  8.70837430521614e-24  0.00000000000000  5.34250000000000  0.00000000000000  4.99294066409517  0.00000000000000  5.01257380202819  0.00000000000000 
 3792.88787513814  9.98963286580268e-24  0.00000000000000  5.34250000000000  0.00000000000000  4.99294066409517  0.00000000000000  5.01257380202819  0.00000000000000 
 4354.81794977128  1.14630951943479e-23  0.00000000000000  5.34250000000000  0.00000000000000  4.99294066409517  0.00000000000000  5.01257380202819  0.00000000000000 
 5000.00000000000  1.31577312589945e-23  0.00000000000000  5.34250000000000  0.00000000000000  4.99294066409517  0.00000000000000  5.01257380202819  0.00000000000000 
