% Finesse 2.1 (2.1-31-g2aa13d1), 12.09.2016
% 2D plot, y1axis: Re , y2axis: Im 
% f [Hz] (darm), NSR_with_RP Re , NSR_with_RP Im , Laver Re , Laver Im , Lmx Re , Lmx Im , Lmy Re , Lmy Im 

 5.00000000000000  2.26612634358410e-22  0.00000000000000  5.34250000000000  0.00000000000000  4.99294066409517  0.00000000000000  5.01257380202819  0.00000000000000 
 5.74076810748417  1.70176740141645e-22  0.00000000000000  5.34250000000000  0.00000000000000  4.99294066409517  0.00000000000000  5.01257380202819  0.00000000000000 
 6.59128369278147  1.28115952854708e-22  0.00000000000000  5.34250000000000  0.00000000000000  4.99294066409517  0.00000000000000  5.01257380202819  0.00000000000000 
 7.56780624218007  9.66355052699631e-23  0.00000000000000  5.34250000000000  0.00000000000000  4.99294066409517  0.00000000000000  5.01257380202819  0.00000000000000 
 8.68900414374539  7.29955980934851e-23  0.00000000000000  5.34250000000000  0.00000000000000  4.99294066409517  0.00000000000000  5.01257380202819  0.00000000000000 
 9.97631157484227  5.51988334554451e-23  0.00000000000000  5.34250000000000  0.00000000000000  4.99294066409517  0.00000000000000  5.01257380202819  0.00000000000000 
 11.4543382638359  4.17763574690711e-23  0.00000000000000  5.34250000000000  0.00000000000000  4.99294066409517  0.00000000000000  5.01257380202819  0.00000000000000 
 13.1513399594730  3.16399281705413e-23  0.00000000000000  5.34250000000000  0.00000000000000  4.99294066409517  0.00000000000000  5.01257380202819  0.00000000000000 
 15.0997586020049  2.39785969814078e-23  0.00000000000000  5.34250000000000  0.00000000000000  4.99294066409517  0.00000000000000  5.01257380202819  0.00000000000000 
 17.3368425226199  1.81854843652444e-23  0.00000000000000  5.34250000000000  0.00000000000000  4.99294066409517  0.00000000000000  5.01257380202819  0.00000000000000 
 19.9053585276664  1.38050824889729e-23  0.00000000000000  5.34250000000000  0.00000000000000  4.99294066409517  0.00000000000000  5.01257380202819  0.00000000000000 
 22.8544094807330  1.04948357011578e-23  0.00000000000000  5.34250000000000  0.00000000000000  4.99294066409517  0.00000000000000  5.01257380202819  0.00000000000000 
 26.2403730124752  7.99682995981114e-24  0.00000000000000  5.34250000000000  0.00000000000000  4.99294066409517  0.00000000000000  5.01257380202819  0.00000000000000 
 30.1279793037012  6.11670976226264e-24  0.00000000000000  5.34250000000000  0.00000000000000  4.99294066409517  0.00000000000000  5.01257380202819  0.00000000000000 
 34.5915485459261  4.70774540647950e-24  0.00000000000000  5.34250000000000  0.00000000000000  4.99294066409517  0.00000000000000  5.01257380202819  0.00000000000000 
 39.7164117361886  3.65851422177366e-24  0.00000000000000  5.34250000000000  0.00000000000000  4.99294066409517  0.00000000000000  5.01257380202819  0.00000000000000 
 45.6005419677643  2.88318570738881e-24  0.00000000000000  5.34250000000000  0.00000000000000  4.99294066409517  0.00000000000000  5.01257380202819  0.00000000000000 
 52.3564274025069  2.31420415901265e-24  0.00000000000000  5.34250000000000  0.00000000000000  4.99294066409517  0.00000000000000  5.01257380202819  0.00000000000000 
 60.1132217308244  1.89804553464791e-24  0.00000000000000  5.34250000000000  0.00000000000000  4.99294066409517  0.00000000000000  5.01257380202819  0.00000000000000 
 69.0192132300882  1.59420411572264e-24  0.00000000000000  5.34250000000000  0.00000000000000  4.99294066409517  0.00000000000000  5.01257380202819  0.00000000000000 
 79.2446596229879  1.37490522637959e-24  0.00000000000000  5.34250000000000  0.00000000000000  4.99294066409517  0.00000000000000  5.01257380202819  0.00000000000000 
 90.9850429304175  1.22224599911320e-24  0.00000000000000  5.34250000000000  0.00000000000000  4.99294066409517  0.00000000000000  5.01257380202819  0.00000000000000 
 104.464806542604  1.12344270694602e-24  0.00000000000000  5.34250000000000  0.00000000000000  4.99294066409517  0.00000000000000  5.01257380202819  0.00000000000000 
 119.941645950857  1.06765889072334e-24  0.00000000000000  5.34250000000000  0.00000000000000  4.99294066409517  0.00000000000000  5.01257380202819  0.00000000000000 
 137.711435166767  1.04560093825800e-24  0.00000000000000  5.34250000000000  0.00000000000000  4.99294066409517  0.00000000000000  5.01257380202819  0.00000000000000 
 158.113883008250  1.05038505322491e-24  0.00000000000000  5.34250000000000  0.00000000000000  4.99294066409517  0.00000000000000  5.01257380202819  0.00000000000000 
 181.539027384849  1.07828401317040e-24  0.00000000000000  5.34250000000000  0.00000000000000  4.99294066409517  0.00000000000000  5.01257380202819  0.00000000000000 
 208.434691734927  1.12926951456095e-24  0.00000000000000  5.34250000000000  0.00000000000000  4.99294066409517  0.00000000000000  5.01257380202819  0.00000000000000 
 239.315046161033  1.20794143825223e-24  0.00000000000000  5.34250000000000  0.00000000000000  4.99294066409517  0.00000000000000  5.01257380202819  0.00000000000000 
 274.770436928472  1.32076680685991e-24  0.00000000000000  5.34250000000000  0.00000000000000  4.99294066409517  0.00000000000000  5.01257380202819  0.00000000000000 
 315.478672239692  1.37910363147047e-24  0.00000000000000  5.34250000000000  0.00000000000000  4.99294066409517  0.00000000000000  5.01257380202819  0.00000000000000 
 362.217980037015  1.18054209803674e-24  0.00000000000000  5.34250000000000  0.00000000000000  4.99294066409517  0.00000000000000  5.01257380202819  0.00000000000000 
 415.881885550767  1.25844354945595e-24  0.00000000000000  5.34250000000000  0.00000000000000  4.99294066409517  0.00000000000000  5.01257380202819  0.00000000000000 
 477.496293010045  1.42506846526610e-24  0.00000000000000  5.34250000000000  0.00000000000000  4.99294066409517  0.00000000000000  5.01257380202819  0.00000000000000 
 548.239098070796  1.61615818854070e-24  0.00000000000000  5.34250000000000  0.00000000000000  4.99294066409517  0.00000000000000  5.01257380202819  0.00000000000000 
 629.462705896142  1.85539559352572e-24  0.00000000000000  5.34250000000000  0.00000000000000  4.99294066409517  0.00000000000000  5.01257380202819  0.00000000000000 
 722.719885371852  2.01319459735446e-24  0.00000000000000  5.34250000000000  0.00000000000000  4.99294066409517  0.00000000000000  5.01257380202819  0.00000000000000 
 829.793453717469  2.22110809553874e-24  0.00000000000000  5.34250000000000  0.00000000000000  4.99294066409517  0.00000000000000  5.01257380202819  0.00000000000000 
 952.730358980076  2.53444569126538e-24  0.00000000000000  5.34250000000000  0.00000000000000  4.99294066409517  0.00000000000000  5.01257380202819  0.00000000000000 
 1093.88081197295  2.88457368509295e-24  0.00000000000000  5.34250000000000  0.00000000000000  4.99294066409517  0.00000000000000  5.01257380202819  0.00000000000000 
 1255.94321575264  3.27450769218028e-24  0.00000000000000  5.34250000000000  0.00000000000000  4.99294066409517  0.00000000000000  5.01257380202819  0.00000000000000 
 1442.01575156078  3.74049461349858e-24  0.00000000000000  5.34250000000000  0.00000000000000  4.99294066409517  0.00000000000000  5.01257380202819  0.00000000000000 
 1655.65560740998  4.26971675515319e-24  0.00000000000000  5.34250000000000  0.00000000000000  4.99294066409517  0.00000000000000  5.01257380202819  0.00000000000000 
 1900.94698159931  4.88328064549742e-24  0.00000000000000  5.34250000000000  0.00000000000000  4.99294066409517  0.00000000000000  5.01257380202819  0.00000000000000 
 2182.57916119673  5.58985835126174e-24  0.00000000000000  5.34250000000000  0.00000000000000  4.99294066409517  0.00000000000000  5.01257380202819  0.00000000000000 
 2505.93616813154  6.40277263243394e-24  0.00000000000000  5.34250000000000  0.00000000000000  4.99294066409517  0.00000000000000  5.01257380202819  0.00000000000000 
 2877.19968668013  7.33627693116705e-24  0.00000000000000  5.34250000000000  0.00000000000000  4.99294066409517  0.00000000000000  5.01257380202819  0.00000000000000 
 3303.46724003135  8.42207564315170e-24  0.00000000000000  5.34250000000000  0.00000000000000  4.99294066409517  0.00000000000000  5.01257380202819  0.00000000000000 
 3792.88787513814  9.65663661823078e-24  0.00000000000000  5.34250000000000  0.00000000000000  4.99294066409517  0.00000000000000  5.01257380202819  0.00000000000000 
 4354.81794977128  1.10796348809669e-23  0.00000000000000  5.34250000000000  0.00000000000000  4.99294066409517  0.00000000000000  5.01257380202819  0.00000000000000 
 5000.00000000000  1.27164208164524e-23  0.00000000000000  5.34250000000000  0.00000000000000  4.99294066409517  0.00000000000000  5.01257380202819  0.00000000000000 
